x	G	delta_G	rs	theta
0.205875	0.014046037318679854	1.4046037318679855e-06	20.0	0.0
0.239625	0.019015427880498873	1.9015427880498874e-06	20.0	0.0
0.273375	0.02472916750663904	2.472916750663904e-06	20.0	0.0
0.307125	0.031183682045037544	3.1183682045037546e-06	20.0	0.0
0.340875	0.03837495462903796	3.837495462903797e-06	20.0	0.0
0.374625	0.04629852902882142	4.6298529028821424e-06	20.0	0.0
0.408375	0.05494950996010163	5.494950996010163e-06	20.0	0.0
0.442125	0.06432255960621176	6.432255960621176e-06	20.0	0.0
0.475875	0.07441188970017862	7.441188970017862e-06	20.0	0.0
0.509625	0.08521124863329206	8.521124863329207e-06	20.0	0.0
0.543375	0.09671390320148188	9.671390320148187e-06	20.0	0.0
0.5771250000000001	0.10891261476515135	1.0891261476515136e-05	20.0	0.0
0.6108750000000001	0.12179960977608104	1.2179960977608105e-05	20.0	0.0
0.6446250000000001	0.13536654481042035	1.3536654481042035e-05	20.0	0.0
0.6783750000000001	0.14960446643341005	1.4960446643341006e-05	20.0	0.0
0.7121250000000001	0.1645037664033274	1.645037664033274e-05	20.0	0.0
0.7458750000000001	0.180054132893625	1.8005413289362502e-05	20.0	0.0
0.7796250000000001	0.19624449856836257	1.9624449856836258e-05	20.0	0.0
0.8133750000000001	0.21306298648253147	2.1306298648253147e-05	20.0	0.0
0.8471250000000001	0.23049685489230715	2.3049685489230716e-05	20.0	0.0
0.8808750000000001	0.24853244214804582	2.4853244214804582e-05	20.0	0.0
0.9146250000000001	0.2671551129032825	2.671551129032825e-05	20.0	0.0
0.9483750000000001	0.28634920690524396	2.8634920690524397e-05	20.0	0.0
0.9821250000000001	0.30609799163645257	3.060979916364526e-05	20.0	0.0
1.015875	0.32638362005358157	3.263836200535816e-05	20.0	0.0
1.049625	0.3471870946202174	3.471870946202174e-05	20.0	0.0
1.0833750000000002	0.3684882387565182	3.684882387565182e-05	20.0	0.0
1.1171250000000001	0.39026567673332646	3.9026567673332646e-05	20.0	0.0
1.150875	0.41249682292384365	4.1249682292384365e-05	20.0	0.0
1.184625	0.4351578811954693	4.351578811954693e-05	20.0	0.0
1.2183750000000002	0.4582238550810094	4.582238550810094e-05	20.0	0.0
1.2521250000000002	0.4816685692153437	4.816685692153437e-05	20.0	0.0
1.285875	0.505464702364004	5.05464702364004e-05	20.0	0.0
1.319625	0.5295838322070353	5.295838322070353e-05	20.0	0.0
1.3533750000000002	0.5539964918779626	5.539964918779626e-05	20.0	0.0
1.3871250000000002	0.5786722380964185	5.786722380964186e-05	20.0	0.0
1.420875	0.6035797305765502	6.0357973057655025e-05	20.0	0.0
1.454625	0.6286868222440076	6.286868222440076e-05	20.0	0.0
1.4883750000000002	0.6539606596541465	6.539606596541466e-05	20.0	0.0
1.5221250000000002	0.6793677928748009	6.79367792874801e-05	20.0	0.0
1.5558750000000001	0.7048742939800494	7.048742939800495e-05	20.0	0.0
1.589625	0.7304458831980084	7.304458831980085e-05	20.0	0.0
1.6233750000000002	0.7560480616667201	7.560480616667201e-05	20.0	0.0
1.6571250000000002	0.7816462496783366	7.816462496783366e-05	20.0	0.0
1.6908750000000001	0.8072059292333799	8.072059292333799e-05	20.0	0.0
1.724625	0.8326927896840708	8.326927896840708e-05	20.0	0.0
1.7583750000000002	0.8580728752184802	8.580728752184802e-05	20.0	0.0
1.7921250000000002	0.8833127329252919	8.83312732925292e-05	20.0	0.0
1.8258750000000001	0.9083795601818427	9.083795601818428e-05	20.0	0.0
1.859625	0.93324135012518	9.3324135012518e-05	20.0	0.0
1.8933750000000003	0.9578670339964155	9.578670339964156e-05	20.0	0.0
1.9271250000000002	0.9822266191917555	9.822266191917555e-05	20.0	0.0
1.9608750000000001	1.0062913219082648	0.00010062913219082648	20.0	0.0
1.994625	1.0300336933376029	0.00010300336933376029	20.0	0.0
2.028375	1.0534277384355062	0.00010534277384355062	20.0	0.0
2.062125	1.0764490263774908	0.00010764490263774909	20.0	0.0
2.0958750000000004	1.0990747919008665	0.00010990747919008666	20.0	0.0
2.1296250000000003	1.121284026828465	0.0001121284026828465	20.0	0.0
2.163375	1.143057561169225	0.00011430575611692252	20.0	0.0
2.1971249999999998	1.1643781332936967	0.00011643781332936967	20.0	0.0
2.230875	1.1852304487874206	0.00011852304487874206	20.0	0.0
2.264625	1.2056012276908432	0.00012056012276908433	20.0	0.0
2.298375	1.225479239939765	0.0001225479239939765	20.0	0.0
2.332125	1.2448553289242457	0.00012448553289242458	20.0	0.0
2.365875	1.2637224231854036	0.00012637224231854037	20.0	0.0
2.399625	1.2820755363676644	0.00012820755363676645	20.0	0.0
2.433375	1.299911755637923	0.0001299911755637923	20.0	0.0
2.467125	1.3172302188719853	0.00013172302188719853	20.0	0.0
2.500875	1.3340320809918615	0.00013340320809918617	20.0	0.0
2.534625	1.3503204699144151	0.00013503204699144152	20.0	0.0
2.568375	1.3661004326420059	0.00013661004326420058	20.0	0.0
2.602125	1.3813788720887141	0.00013813788720887143	20.0	0.0
2.635875	1.3961644752911595	0.00013961644752911597	20.0	0.0
2.669625	1.4104676337006294	0.00014104676337006294	20.0	0.0
2.703375	1.4243003562930567	0.0001424300356293057	20.0	0.0
2.737125	1.437676176265302	0.0001437676176265302	20.0	0.0
2.770875	1.4506100521102163	0.00014506100521102165	20.0	0.0
2.804625	1.4631182638792342	0.0001463118263879234	20.0	0.0
2.838375	1.4752183054499175	0.00014752183054499176	20.0	0.0
2.872125	1.486928773617225	0.00014869287736172252	20.0	0.0
2.905875	1.4982692548216212	0.00014982692548216214	20.0	0.0
2.939625	1.5092602103148294	0.00015092602103148294	20.0	0.0
2.973375	1.5199228605455009	0.0001519922860545501	20.0	0.0
3.007125	1.5302790695227726	0.00015302790695227727	20.0	0.0
3.040875	1.5403512298861013	0.00015403512298861014	20.0	0.0
3.074625	1.5501621493754287	0.00015501621493754287	20.0	0.0
3.108375	1.5597349393571913	0.00015597349393571913	20.0	0.0
3.142125	1.5690929060194538	0.0001569092906019454	20.0	0.0
3.175875	1.578259444804151	0.0001578259444804151	20.0	0.0
3.209625	1.5872579385965584	0.00015872579385965585	20.0	0.0
3.243375	1.596111660142273	0.0001596111660142273	20.0	0.0
3.277125	1.6048436791107132	0.00016048436791107134	20.0	0.0
3.3108750000000002	1.6134767741719753	0.00016134767741719753	20.0	0.0
3.344625	1.6220333504012936	0.00016220333504012938	20.0	0.0
3.378375	1.6305353622728915	0.00016305353622728916	20.0	0.0
3.412125	1.6390042424530615	0.00016390042424530615	20.0	0.0
3.445875	1.6474608365513774	0.00016474608365513776	20.0	0.0
3.479625	1.6559253439393524	0.00016559253439393524	20.0	0.0
3.513375	1.664417264698025	0.00016644172646980253	20.0	0.0
3.547125	1.672955352710161	0.0001672955352710161	20.0	0.0
3.5808750000000003	1.6815575748692986	0.00016815575748692986	20.0	0.0
3.614625	1.6902410763370252	0.00016902410763370253	20.0	0.0
3.648375	1.6990221517417585	0.00016990221517417585	20.0	0.0
3.682125	1.7079162221772137	0.00017079162221772138	20.0	0.0
3.715875	1.716937817826693	0.0001716937817826693	20.0	0.0
3.749625	1.7261005660104671	0.00017261005660104673	20.0	0.0
3.783375	1.7354171844279191	0.00017354171844279192	20.0	0.0
3.817125	1.7448994793437436	0.00017448994793437436	20.0	0.0
3.8508750000000003	1.7545583484483895	0.00017545583484483896	20.0	0.0
3.884625	1.764403788107045	0.0001764403788107045	20.0	0.0
3.918375	1.7744449046987074	0.00017744449046987076	20.0	0.0
3.952125	1.7846899297371945	0.00017846899297371946	20.0	0.0
3.985875	1.795146238459207	0.0001795146238459207	20.0	0.0
4.0196250000000004	1.8058203715606191	0.00018058203715606193	20.0	0.0
4.053375	1.8167180597609036	0.00018167180597609037	20.0	0.0
4.087125	1.8278442508768293	0.00018278442508768295	20.0	0.0
4.120875	1.8392031390901136	0.00018392031390901138	20.0	0.0
4.154625	1.850798196099412	0.00018507981960994122	20.0	0.0
4.188375	1.8626322038546588	0.0001862632203854659	20.0	0.0
4.222125	1.874707288581159	0.00018747072885811592	20.0	0.0
4.2558750000000005	1.887024955811769	0.0001887024955811769	20.0	0.0
4.289625	1.899586126157806	0.00018995861261578061	20.0	0.0
4.323375	1.91239117156276	0.000191239117156276	20.0	0.0
4.357125	1.9254399517973055	0.00019254399517973055	20.0	0.0
4.390875	1.9387318509692986	0.00019387318509692987	20.0	0.0
4.424625	1.952265813838222	0.00019522658138382222	20.0	0.0
4.458375	1.9660403817397667	0.0001966040381739767	20.0	0.0
4.492125	1.9800537279426766	0.00019800537279426766	20.0	0.0
4.525875	1.9943036922765902	0.00019943036922765903	20.0	0.0
4.5596250000000005	2.0087878148861127	0.00020087878148861127	20.0	0.0
4.593375	2.0235033689827464	0.00020235033689827464	20.0	0.0
4.627125	2.038447392482359	0.00020384473924823593	20.0	0.0
4.660875	2.053616718431556	0.0002053616718431556	20.0	0.0
4.694625	2.0690080041415144	0.00020690080041415145	20.0	0.0
4.728375	2.084617758962413	0.0002084617758962413	20.0	0.0
4.762125	2.1004423706455837	0.00021004423706455838	20.0	0.0
4.7958750000000006	2.1164781302537032	0.00021164781302537034	20.0	0.0
4.829625	2.1327212555918793	0.00021327212555918794	20.0	0.0
4.8633750000000004	2.149167913144108	0.00021491679131441083	20.0	0.0
4.897125	2.1658142385104706	0.00021658142385104707	20.0	0.0
4.930875	2.1826563553504212	0.00021826563553504214	20.0	0.0
4.964625	2.199690392846658	0.00021996903928466578	20.0	0.0
4.998375	2.216912501712374	0.00022169125017123742	20.0	0.0
